#E Channel (eV)	Total	Background	Characteristic	
5	9.27699e-12	9.27699e-12	0	
15	3.27295e-11	3.27295e-11	0	
25	9.50261e-11	9.50261e-11	0	
35	2.30469e-10	2.30469e-10	0	
45	4.78838e-10	4.78838e-10	0	
55	8.60103e-10	8.60103e-10	0	
65	1.34171e-09	1.34171e-09	0	
75	1.82148e-09	1.82148e-09	0	
85	2.15399e-09	2.15399e-09	0	
95	2.2217e-09	2.2217e-09	0	
105	2.00556e-09	2.00556e-09	0	
115	1.59613e-09	1.59613e-09	0	
125	1.13311e-09	1.13311e-09	0	
135	7.2879e-10	7.2879e-10	0	
145	4.29813e-10	4.29813e-10	0	
155	2.33287e-10	2.33287e-10	0	
165	1.15331e-10	1.15331e-10	0	
175	5.16143e-11	5.16143e-11	0	
185	2.49483e-11	2.49483e-11	0	
195	2.5801e-11	2.5801e-11	0	
205	5.7047e-11	5.7047e-11	0	
215	1.33104e-10	1.33104e-10	0	
225	2.7322e-10	2.7322e-10	0	
235	4.888e-10	4.888e-10	0	
245	7.68805e-10	7.68805e-10	0	
255	1.07213e-09	1.07213e-09	0	
265	1.33631e-09	1.33631e-09	0	
275	1.50191e-09	1.50191e-09	0	
285	1.54069e-09	1.54069e-09	0	
295	1.47054e-09	1.47054e-09	0	
305	1.34594e-09	1.34594e-09	0	
315	1.22974e-09	1.22974e-09	0	
325	1.16535e-09	1.16535e-09	0	
335	1.16725e-09	1.16725e-09	0	
345	1.22842e-09	1.22842e-09	0	
355	1.3355e-09	1.3355e-09	0	
365	1.47786e-09	1.47786e-09	0	
375	1.6493e-09	1.6493e-09	0	
385	1.84579e-09	1.84579e-09	0	
395	2.06456e-09	2.06456e-09	0	
405	2.30494e-09	2.30494e-09	0	
415	2.56809e-09	2.56809e-09	0	
425	2.85544e-09	2.85544e-09	0	
435	3.16655e-09	3.16655e-09	0	
445	3.49773e-09	3.49773e-09	0	
455	3.84279e-09	3.84279e-09	0	
465	4.191e-09	4.191e-09	0	
475	4.53309e-09	4.53309e-09	0	
485	4.85582e-09	4.85582e-09	0	
495	5.14295e-09	5.14295e-09	0	
505	5.3848e-09	5.3848e-09	0	
515	5.56144e-09	5.56144e-09	0	
525	5.68875e-09	5.68875e-09	0	
535	5.79438e-09	5.79438e-09	0	
545	5.91347e-09	5.91347e-09	0	
555	6.07305e-09	6.07305e-09	0	
565	6.28215e-09	6.28215e-09	0	
575	6.53329e-09	6.53329e-09	0	
585	6.81135e-09	6.81135e-09	0	
595	7.10199e-09	7.10199e-09	0	
605	7.39547e-09	7.39547e-09	0	
615	7.68748e-09	7.68748e-09	0	
625	7.97312e-09	7.97312e-09	0	
635	8.25133e-09	8.25133e-09	0	
645	8.52091e-09	8.52091e-09	0	
655	8.78071e-09	8.78071e-09	0	
665	9.03621e-09	9.03621e-09	0	
675	9.27399e-09	9.27399e-09	0	
685	9.49973e-09	9.49973e-09	0	
695	9.71344e-09	9.71344e-09	0	
705	9.9155e-09	9.9155e-09	0	
715	1.01066e-08	1.01066e-08	0	
725	1.02875e-08	1.02875e-08	0	
735	1.04588e-08	1.04588e-08	0	
745	1.06209e-08	1.06209e-08	0	
755	1.07739e-08	1.07739e-08	0	
765	1.09176e-08	1.09176e-08	0	
775	1.10523e-08	1.10523e-08	0	
785	1.11779e-08	1.11779e-08	0	
795	1.1295e-08	1.1295e-08	0	
805	1.14037e-08	1.14037e-08	0	
815	1.15046e-08	1.15046e-08	0	
825	1.1598e-08	1.1598e-08	0	
835	1.16839e-08	1.16839e-08	0	
845	1.17625e-08	1.17625e-08	0	
855	1.1834e-08	1.1834e-08	0	
865	1.18984e-08	1.18984e-08	0	
875	1.19562e-08	1.19562e-08	0	
885	1.20076e-08	1.20076e-08	0	
895	1.20529e-08	1.20529e-08	0	
905	1.20922e-08	1.20922e-08	0	
915	1.21256e-08	1.21256e-08	0	
925	1.21534e-08	1.21534e-08	0	
935	1.21756e-08	1.21756e-08	0	
945	1.21928e-08	1.21928e-08	0	
955	1.22053e-08	1.22053e-08	0	
965	1.22136e-08	1.22136e-08	0	
975	1.22178e-08	1.22178e-08	0	
985	1.22181e-08	1.22181e-08	0	
995	1.22145e-08	1.22145e-08	0	
1005	1.22071e-08	1.22071e-08	0	
1015	1.2196e-08	1.2196e-08	0	
1025	1.21816e-08	1.21816e-08	0	
1035	1.2164e-08	1.2164e-08	0	
1045	1.21436e-08	1.21436e-08	0	
1055	1.21204e-08	1.21204e-08	0	
1065	1.20948e-08	1.20948e-08	0	
1075	1.20668e-08	1.20668e-08	0	
1085	1.20474e-08	1.20474e-08	0	
1095	1.20154e-08	1.20154e-08	0	
1105	1.19814e-08	1.19814e-08	0	
1115	1.19454e-08	1.19454e-08	0	
1125	1.19071e-08	1.19071e-08	0	
1135	1.18665e-08	1.18665e-08	0	
1145	1.18237e-08	1.18237e-08	0	
1155	1.17787e-08	1.17787e-08	0	
1165	1.17316e-08	1.17316e-08	0	
1175	1.16826e-08	1.16826e-08	0	
1185	1.16319e-08	1.16319e-08	0	
1195	1.15799e-08	1.15799e-08	0	
1205	1.15269e-08	1.15269e-08	0	
1215	1.14732e-08	1.14732e-08	0	
1225	1.1419e-08	1.1419e-08	0	
1235	1.13646e-08	1.13646e-08	0	
1245	1.13099e-08	1.13099e-08	0	
1255	1.12551e-08	1.12551e-08	0	
1265	1.12105e-08	1.12105e-08	0	
1275	1.1155e-08	1.1155e-08	0	
1285	1.10986e-08	1.10986e-08	0	
1295	1.10409e-08	1.10409e-08	0	
1305	1.09813e-08	1.09813e-08	0	
1315	1.09193e-08	1.09193e-08	0	
1325	1.08544e-08	1.08544e-08	0	
1335	1.07863e-08	1.07863e-08	0	
1345	1.07154e-08	1.07154e-08	0	
1355	1.06422e-08	1.06422e-08	0	
1365	1.05681e-08	1.05681e-08	0	
1375	1.04947e-08	1.04947e-08	0	
1385	1.04241e-08	1.04241e-08	0	
1395	2.44367e-08	1.03584e-08	1.40783e-08	
1405	4.73185e-08	1.02997e-08	3.70189e-08	
1415	9.73158e-08	1.02498e-08	8.70661e-08	
1425	1.93368e-07	1.02101e-08	1.83158e-07	
1435	3.54814e-07	1.01812e-08	3.44633e-07	
1445	5.90177e-07	1.01624e-08	5.80014e-07	
1455	8.8327e-07	1.01516e-08	8.73118e-07	
1465	1.18596e-06	1.01447e-08	1.17582e-06	
1475	1.42647e-06	1.01357e-08	1.41633e-06	
1485	1.53639e-06	1.01172e-08	1.52627e-06	
1495	1.48185e-06	1.00804e-08	1.47177e-06	
1505	1.28055e-06	1.00154e-08	1.27054e-06	
1515	9.92785e-07	9.91238e-09	9.82872e-07	
1525	6.92465e-07	9.76247e-09	6.82703e-07	
1535	4.37085e-07	9.55926e-09	4.27525e-07	
1545	2.52646e-07	9.30009e-09	2.43346e-07	
1555	1.36843e-07	8.98701e-09	1.27856e-07	
1565	7.22881e-08	8.62669e-09	6.36614e-08	
1575	3.93845e-08	8.22944e-09	3.11551e-08	
1585	1.63615e-08	7.80783e-09	8.55368e-09	
1595	1.30868e-08	7.37541e-09	5.7114e-09	
1605	1.0365e-08	6.94581e-09	3.41919e-09	
1615	8.36754e-09	6.53228e-09	1.83526e-09	
1625	7.03055e-09	6.14735e-09	8.83205e-10	
1635	6.18326e-09	5.80218e-09	3.81082e-10	
1645	5.65327e-09	5.50585e-09	1.47424e-10	
1655	5.26449e-09	5.26449e-09	0	
1665	5.08089e-09	5.08089e-09	0	
1675	4.95381e-09	4.95381e-09	0	
1685	4.87898e-09	4.87898e-09	0	
1695	4.84955e-09	4.84955e-09	0	
1705	4.85664e-09	4.85664e-09	0	
1715	4.89052e-09	4.89052e-09	0	
1725	4.94135e-09	4.94135e-09	0	
1735	4.99994e-09	4.99994e-09	0	
1745	5.06248e-09	5.06248e-09	0	
1755	5.11385e-09	5.11385e-09	0	
1765	5.1537e-09	5.1537e-09	0	
1775	5.17893e-09	5.17893e-09	0	
1785	5.18779e-09	5.18779e-09	0	
1795	5.17964e-09	5.17964e-09	0	
1805	5.15487e-09	5.15487e-09	0	
1815	5.11512e-09	5.11512e-09	0	
1825	5.06348e-09	5.06348e-09	0	
1835	5.00449e-09	5.00449e-09	0	
1845	4.94369e-09	4.94369e-09	0	
1855	4.88657e-09	4.88657e-09	0	
1865	4.83748e-09	4.83748e-09	0	
1875	4.79879e-09	4.79879e-09	0	
1885	4.77079e-09	4.77079e-09	0	
1895	4.75213e-09	4.75213e-09	0	
1905	4.74062e-09	4.74062e-09	0	
1915	4.73395e-09	4.73395e-09	0	
1925	4.73011e-09	4.73011e-09	0	
1935	4.7276e-09	4.7276e-09	0	
1945	4.72977e-09	4.72977e-09	0	
1955	4.72723e-09	4.72723e-09	0	
1965	4.72378e-09	4.72378e-09	0	
1975	4.71923e-09	4.71923e-09	0	
1985	4.71351e-09	4.71351e-09	0	
1995	4.70666e-09	4.70666e-09	0	
2005	4.69881e-09	4.69881e-09	0	
2015	4.6901e-09	4.6901e-09	0	
2025	4.68073e-09	4.68073e-09	0	
2035	4.67087e-09	4.67087e-09	0	
2045	4.66069e-09	4.66069e-09	0	
2055	4.65033e-09	4.65033e-09	0	
2065	4.63987e-09	4.63987e-09	0	
2075	4.62939e-09	4.62939e-09	0	
2085	4.61892e-09	4.61892e-09	0	
2095	4.60845e-09	4.60845e-09	0	
2105	4.59796e-09	4.59796e-09	0	
2115	4.58742e-09	4.58742e-09	0	
2125	4.57677e-09	4.57677e-09	0	
2135	4.56594e-09	4.56594e-09	0	
2145	4.55481e-09	4.55481e-09	0	
2155	4.54327e-09	4.54327e-09	0	
2165	4.53115e-09	4.53115e-09	0	
2175	4.51823e-09	4.51823e-09	0	
2185	4.5043e-09	4.5043e-09	0	
2195	4.48914e-09	4.48914e-09	0	
2205	4.47257e-09	4.47257e-09	0	
2215	4.4545e-09	4.4545e-09	0	
2225	4.43502e-09	4.43502e-09	0	
2235	4.41434e-09	4.41434e-09	0	
2245	4.39283e-09	4.39283e-09	0	
2255	4.37095e-09	4.37095e-09	0	
2265	4.34908e-09	4.34908e-09	0	
2275	4.32753e-09	4.32753e-09	0	
2285	4.30645e-09	4.30645e-09	0	
2295	4.28589e-09	4.28589e-09	0	
2305	4.26584e-09	4.26584e-09	0	
2315	4.24633e-09	4.24633e-09	0	
2325	4.22746e-09	4.22746e-09	0	
2335	4.20936e-09	4.20936e-09	0	
2345	4.19219e-09	4.19219e-09	0	
2355	4.17606e-09	4.17606e-09	0	
2365	4.16094e-09	4.16094e-09	0	
2375	4.14673e-09	4.14673e-09	0	
2385	4.1332e-09	4.1332e-09	0	
2395	4.12006e-09	4.12006e-09	0	
2405	4.10703e-09	4.10703e-09	0	
2415	4.09382e-09	4.09382e-09	0	
2425	4.08017e-09	4.08017e-09	0	
2435	4.06587e-09	4.06587e-09	0	
2445	4.0508e-09	4.0508e-09	0	
2455	4.03487e-09	4.03487e-09	0	
2465	4.0181e-09	4.0181e-09	0	
2475	4.00371e-09	4.00371e-09	0	
2485	3.98562e-09	3.98562e-09	0	
2495	3.96714e-09	3.96714e-09	0	
2505	3.94851e-09	3.94851e-09	0	
2515	3.92996e-09	3.92996e-09	0	
2525	3.91173e-09	3.91173e-09	0	
2535	3.89403e-09	3.89403e-09	0	
2545	3.87702e-09	3.87702e-09	0	
2555	3.86081e-09	3.86081e-09	0	
2565	3.84543e-09	3.84543e-09	0	
2575	3.83088e-09	3.83088e-09	0	
2585	3.81708e-09	3.81708e-09	0	
2595	3.80392e-09	3.80392e-09	0	
2605	3.79127e-09	3.79127e-09	0	
2615	3.77897e-09	3.77897e-09	0	
2625	3.76686e-09	3.76686e-09	0	
2635	3.7548e-09	3.7548e-09	0	
2645	3.74264e-09	3.74264e-09	0	
2655	3.73026e-09	3.73026e-09	0	
2665	3.71753e-09	3.71753e-09	0	
2675	3.70436e-09	3.70436e-09	0	
2685	3.69067e-09	3.69067e-09	0	
2695	3.67951e-09	3.67951e-09	0	
2705	3.66465e-09	3.66465e-09	0	
2715	3.64921e-09	3.64921e-09	0	
2725	3.63326e-09	3.63326e-09	0	
2735	3.61691e-09	3.61691e-09	0	
2745	3.6003e-09	3.6003e-09	0	
2755	3.58359e-09	3.58359e-09	0	
2765	3.56693e-09	3.56693e-09	0	
2775	3.55048e-09	3.55048e-09	0	
2785	3.53441e-09	3.53441e-09	0	
2795	3.51884e-09	3.51884e-09	0	
2805	3.50391e-09	3.50391e-09	0	
2815	3.48969e-09	3.48969e-09	0	
2825	3.47628e-09	3.47628e-09	0	
2835	3.4637e-09	3.4637e-09	0	
2845	3.45195e-09	3.45195e-09	0	
2855	3.44098e-09	3.44098e-09	0	
2865	3.43069e-09	3.43069e-09	0	
2875	3.42092e-09	3.42092e-09	0	
2885	3.41149e-09	3.41149e-09	0	
2895	3.40217e-09	3.40217e-09	0	
2905	3.39272e-09	3.39272e-09	0	
2915	3.38288e-09	3.38288e-09	0	
2925	3.37243e-09	3.37243e-09	0	
2935	3.36117e-09	3.36117e-09	0	
2945	3.34895e-09	3.34895e-09	0	
2955	3.33569e-09	3.33569e-09	0	
2965	3.32138e-09	3.32138e-09	0	
2975	3.30606e-09	3.30606e-09	0	
2985	3.28987e-09	3.28987e-09	0	
2995	3.27296e-09	3.27296e-09	0	
3005	3.25556e-09	3.25556e-09	0	
3015	3.23789e-09	3.23789e-09	0	
3025	3.22019e-09	3.22019e-09	0	
3035	3.20269e-09	3.20269e-09	0	
3045	3.1856e-09	3.1856e-09	0	
3055	3.16907e-09	3.16907e-09	0	
3065	3.15325e-09	3.15325e-09	0	
3075	3.13821e-09	3.13821e-09	0	
3085	3.12402e-09	3.12402e-09	0	
3095	3.11068e-09	3.11068e-09	0	
3105	3.09819e-09	3.09819e-09	0	
3115	3.0865e-09	3.0865e-09	0	
3125	3.07555e-09	3.07555e-09	0	
3135	3.0653e-09	3.0653e-09	0	
3145	3.05565e-09	3.05565e-09	0	
3155	3.04653e-09	3.04653e-09	0	
3165	3.03782e-09	3.03782e-09	0	
3175	3.02944e-09	3.02944e-09	0	
3185	3.02125e-09	3.02125e-09	0	
3195	3.01314e-09	3.01314e-09	0	
3205	3.00498e-09	3.00498e-09	0	
3215	2.99665e-09	2.99665e-09	0	
3225	2.98804e-09	2.98804e-09	0	
3235	2.97905e-09	2.97905e-09	0	
3245	2.96962e-09	2.96962e-09	0	
3255	2.95969e-09	2.95969e-09	0	
3265	2.94926e-09	2.94926e-09	0	
3275	2.93834e-09	2.93834e-09	0	
3285	2.92915e-09	2.92915e-09	0	
3295	2.91744e-09	2.91744e-09	0	
3305	2.90546e-09	2.90546e-09	0	
3315	2.89331e-09	2.89331e-09	0	
3325	2.8811e-09	2.8811e-09	0	
3335	2.8689e-09	2.8689e-09	0	
3345	2.85681e-09	2.85681e-09	0	
3355	2.84487e-09	2.84487e-09	0	
3365	2.83312e-09	2.83312e-09	0	
3375	2.82156e-09	2.82156e-09	0	
3385	2.81019e-09	2.81019e-09	0	
3395	2.79897e-09	2.79897e-09	0	
3405	2.78787e-09	2.78787e-09	0	
3415	2.77684e-09	2.77684e-09	0	
3425	2.76584e-09	2.76584e-09	0	
3435	2.75482e-09	2.75482e-09	0	
3445	2.74377e-09	2.74377e-09	0	
3455	2.73265e-09	2.73265e-09	0	
3465	2.72149e-09	2.72149e-09	0	
3475	2.71028e-09	2.71028e-09	0	
3485	2.69906e-09	2.69906e-09	0	
3495	2.68785e-09	2.68785e-09	0	
3505	2.67671e-09	2.67671e-09	0	
3515	2.66567e-09	2.66567e-09	0	
3525	2.65694e-09	2.65694e-09	0	
3535	2.64621e-09	2.64621e-09	0	
3545	2.63568e-09	2.63568e-09	0	
3555	2.62533e-09	2.62533e-09	0	
3565	2.61518e-09	2.61518e-09	0	
3575	2.6052e-09	2.6052e-09	0	
3585	2.59537e-09	2.59537e-09	0	
3595	2.58565e-09	2.58565e-09	0	
3605	2.57598e-09	2.57598e-09	0	
3615	2.56634e-09	2.56634e-09	0	
3625	2.55667e-09	2.55667e-09	0	
3635	2.54694e-09	2.54694e-09	0	
3645	2.5371e-09	2.5371e-09	0	
3655	2.52714e-09	2.52714e-09	0	
3665	2.51705e-09	2.51705e-09	0	
3675	2.50682e-09	2.50682e-09	0	
3685	2.49647e-09	2.49647e-09	0	
3695	2.48602e-09	2.48602e-09	0	
3705	2.47549e-09	2.47549e-09	0	
3715	2.46493e-09	2.46493e-09	0	
3725	2.45438e-09	2.45438e-09	0	
3735	2.44388e-09	2.44388e-09	0	
3745	2.43349e-09	2.43349e-09	0	
3755	2.42326e-09	2.42326e-09	0	
3765	2.41326e-09	2.41326e-09	0	
3775	2.40353e-09	2.40353e-09	0	
3785	2.39414e-09	2.39414e-09	0	
3795	2.38513e-09	2.38513e-09	0	
3805	2.37657e-09	2.37657e-09	0	
3815	2.36848e-09	2.36848e-09	0	
3825	2.36089e-09	2.36089e-09	0	
3835	2.3538e-09	2.3538e-09	0	
3845	2.3472e-09	2.3472e-09	0	
3855	2.34104e-09	2.34104e-09	0	
3865	2.33525e-09	2.33525e-09	0	
3875	2.32974e-09	2.32974e-09	0	
3885	2.32438e-09	2.32438e-09	0	
3895	2.31904e-09	2.31904e-09	0	
3905	2.3136e-09	2.3136e-09	0	
3915	2.30791e-09	2.30791e-09	0	
3925	2.30186e-09	2.30186e-09	0	
3935	2.29535e-09	2.29535e-09	0	
3945	2.28831e-09	2.28831e-09	0	
3955	2.28072e-09	2.28072e-09	0	
3965	2.27261e-09	2.27261e-09	0	
3975	2.26401e-09	2.26401e-09	0	
3985	2.25504e-09	2.25504e-09	0	
3995	2.24581e-09	2.24581e-09	0	
4005	2.23646e-09	2.23646e-09	0	
4015	2.22714e-09	2.22714e-09	0	
4025	2.21798e-09	2.21798e-09	0	
4035	2.2091e-09	2.2091e-09	0	
4045	2.20059e-09	2.20059e-09	0	
4055	2.19251e-09	2.19251e-09	0	
4065	2.18486e-09	2.18486e-09	0	
4075	2.17762e-09	2.17762e-09	0	
4085	2.17071e-09	2.17071e-09	0	
4095	2.16405e-09	2.16405e-09	0	
4105	2.15751e-09	2.15751e-09	0	
4115	2.15097e-09	2.15097e-09	0	
4125	2.14432e-09	2.14432e-09	0	
4135	2.13743e-09	2.13743e-09	0	
4145	2.13024e-09	2.13024e-09	0	
4155	2.12267e-09	2.12267e-09	0	
4165	2.11619e-09	2.11619e-09	0	
4175	2.10785e-09	2.10785e-09	0	
4185	2.09916e-09	2.09916e-09	0	
4195	2.09019e-09	2.09019e-09	0	
4205	2.08103e-09	2.08103e-09	0	
4215	2.07176e-09	2.07176e-09	0	
4225	2.06248e-09	2.06248e-09	0	
4235	2.05328e-09	2.05328e-09	0	
4245	2.04424e-09	2.04424e-09	0	
4255	2.03542e-09	2.03542e-09	0	
4265	2.02687e-09	2.02687e-09	0	
4275	2.01862e-09	2.01862e-09	0	
4285	2.01065e-09	2.01065e-09	0	
4295	2.00297e-09	2.00297e-09	0	
4305	1.99554e-09	1.99554e-09	0	
4315	1.98834e-09	1.98834e-09	0	
4325	1.98131e-09	1.98131e-09	0	
4335	1.97443e-09	1.97443e-09	0	
4345	1.96765e-09	1.96765e-09	0	
4355	1.96094e-09	1.96094e-09	0	
4365	1.95427e-09	1.95427e-09	0	
4375	1.94763e-09	1.94763e-09	0	
4385	1.94102e-09	1.94102e-09	0	
4395	1.93442e-09	1.93442e-09	0	
4405	1.92783e-09	1.92783e-09	0	
4415	1.92127e-09	1.92127e-09	0	
4425	1.91622e-09	1.91622e-09	0	
4435	1.90973e-09	1.90973e-09	0	
4445	1.90328e-09	1.90328e-09	0	
4455	1.89686e-09	1.89686e-09	0	
4465	1.89048e-09	1.89048e-09	0	
4475	1.88413e-09	1.88413e-09	0	
4485	1.87779e-09	1.87779e-09	0	
4495	1.87145e-09	1.87145e-09	0	
4505	1.8651e-09	1.8651e-09	0	
4515	1.85873e-09	1.85873e-09	0	
4525	1.85232e-09	1.85232e-09	0	
4535	1.84588e-09	1.84588e-09	0	
4545	1.8394e-09	1.8394e-09	0	
4555	1.83289e-09	1.83289e-09	0	
4565	1.82637e-09	1.82637e-09	0	
4575	1.81986e-09	1.81986e-09	0	
4585	1.8134e-09	1.8134e-09	0	
4595	1.80701e-09	1.80701e-09	0	
4605	1.80072e-09	1.80072e-09	0	
4615	1.79458e-09	1.79458e-09	0	
4625	1.78858e-09	1.78858e-09	0	
4635	1.78276e-09	1.78276e-09	0	
4645	1.7771e-09	1.7771e-09	0	
4655	1.77159e-09	1.77159e-09	0	
4665	1.7662e-09	1.7662e-09	0	
4675	1.76087e-09	1.76087e-09	0	
4685	1.75555e-09	1.75555e-09	0	
4695	1.75017e-09	1.75017e-09	0	
4705	1.74464e-09	1.74464e-09	0	
4715	1.73889e-09	1.73889e-09	0	
4725	1.73287e-09	1.73287e-09	0	
4735	1.7265e-09	1.7265e-09	0	
4745	1.71976e-09	1.71976e-09	0	
4755	1.71263e-09	1.71263e-09	0	
4765	1.70512e-09	1.70512e-09	0	
4775	1.69725e-09	1.69725e-09	0	
4785	1.68907e-09	1.68907e-09	0	
4795	1.68066e-09	1.68066e-09	0	
4805	1.67208e-09	1.67208e-09	0	
4815	1.66343e-09	1.66343e-09	0	
4825	1.65479e-09	1.65479e-09	0	
4835	1.64624e-09	1.64624e-09	0	
4845	1.63785e-09	1.63785e-09	0	
4855	1.62967e-09	1.62967e-09	0	
4865	1.62174e-09	1.62174e-09	0	
4875	1.61409e-09	1.61409e-09	0	
4885	1.60672e-09	1.60672e-09	0	
4895	1.59963e-09	1.59963e-09	0	
4905	1.5928e-09	1.5928e-09	0	
4915	1.58619e-09	1.58619e-09	0	
4925	1.57978e-09	1.57978e-09	0	
4935	1.57353e-09	1.57353e-09	0	
4945	1.56739e-09	1.56739e-09	0	
4955	1.56135e-09	1.56135e-09	0	
4965	1.55535e-09	1.55535e-09	0	
4975	1.54938e-09	1.54938e-09	0	
4985	1.5434e-09	1.5434e-09	0	
4995	1.5374e-09	1.5374e-09	0	
5005	1.53135e-09	1.53135e-09	0	
5015	1.52524e-09	1.52524e-09	0	
5025	1.51906e-09	1.51906e-09	0	
5035	1.51279e-09	1.51279e-09	0	
5045	1.50643e-09	1.50643e-09	0	
5055	1.49997e-09	1.49997e-09	0	
5065	1.4934e-09	1.4934e-09	0	
5075	1.48672e-09	1.48672e-09	0	
5085	1.47993e-09	1.47993e-09	0	
5095	1.47303e-09	1.47303e-09	0	
5105	1.46602e-09	1.46602e-09	0	
5115	1.45987e-09	1.45987e-09	0	
5125	1.45267e-09	1.45267e-09	0	
5135	1.4454e-09	1.4454e-09	0	
5145	1.43807e-09	1.43807e-09	0	
5155	1.43072e-09	1.43072e-09	0	
5165	1.42337e-09	1.42337e-09	0	
5175	1.41607e-09	1.41607e-09	0	
5185	1.40884e-09	1.40884e-09	0	
5195	1.40173e-09	1.40173e-09	0	
5205	1.39478e-09	1.39478e-09	0	
5215	1.38804e-09	1.38804e-09	0	
5225	1.38153e-09	1.38153e-09	0	
5235	1.37528e-09	1.37528e-09	0	
5245	1.36931e-09	1.36931e-09	0	
5255	1.36362e-09	1.36362e-09	0	
5265	1.35821e-09	1.35821e-09	0	
5275	1.35306e-09	1.35306e-09	0	
5285	1.34815e-09	1.34815e-09	0	
5295	1.34345e-09	1.34345e-09	0	
5305	1.3389e-09	1.3389e-09	0	
5315	1.33446e-09	1.33446e-09	0	
5325	1.33008e-09	1.33008e-09	0	
5335	1.32571e-09	1.32571e-09	0	
5345	1.32131e-09	1.32131e-09	0	
5355	1.31683e-09	1.31683e-09	0	
5365	1.31224e-09	1.31224e-09	0	
5375	1.30751e-09	1.30751e-09	0	
5385	1.30261e-09	1.30261e-09	0	
5395	1.29848e-09	1.29848e-09	0	
5405	1.29321e-09	1.29321e-09	0	
5415	1.28774e-09	1.28774e-09	0	
5425	1.28208e-09	1.28208e-09	0	
5435	1.27625e-09	1.27625e-09	0	
5445	1.27025e-09	1.27025e-09	0	
5455	1.26412e-09	1.26412e-09	0	
5465	1.25788e-09	1.25788e-09	0	
5475	1.25157e-09	1.25157e-09	0	
5485	1.24524e-09	1.24524e-09	0	
5495	1.23891e-09	1.23891e-09	0	
5505	1.23264e-09	1.23264e-09	0	
5515	1.22647e-09	1.22647e-09	0	
5525	1.22044e-09	1.22044e-09	0	
5535	1.21457e-09	1.21457e-09	0	
5545	1.20889e-09	1.20889e-09	0	
5555	1.20343e-09	1.20343e-09	0	
5565	1.19818e-09	1.19818e-09	0	
5575	1.19315e-09	1.19315e-09	0	
5585	1.18833e-09	1.18833e-09	0	
5595	1.18371e-09	1.18371e-09	0	
5605	1.17925e-09	1.17925e-09	0	
5615	1.17494e-09	1.17494e-09	0	
5625	1.17075e-09	1.17075e-09	0	
5635	1.16665e-09	1.16665e-09	0	
5645	1.16263e-09	1.16263e-09	0	
5655	1.15867e-09	1.15867e-09	0	
5665	1.15474e-09	1.15474e-09	0	
5675	1.15085e-09	1.15085e-09	0	
5685	1.14699e-09	1.14699e-09	0	
5695	1.14316e-09	1.14316e-09	0	
5705	1.13935e-09	1.13935e-09	0	
5715	1.13557e-09	1.13557e-09	0	
5725	1.13183e-09	1.13183e-09	0	
5735	1.12812e-09	1.12812e-09	0	
5745	1.12445e-09	1.12445e-09	0	
5755	1.12081e-09	1.12081e-09	0	
5765	1.1172e-09	1.1172e-09	0	
5775	1.1136e-09	1.1136e-09	0	
5785	1.11e-09	1.11e-09	0	
5795	1.10639e-09	1.10639e-09	0	
5805	1.10275e-09	1.10275e-09	0	
5815	1.09906e-09	1.09906e-09	0	
5825	1.09532e-09	1.09532e-09	0	
5835	1.0915e-09	1.0915e-09	0	
5845	1.0876e-09	1.0876e-09	0	
5855	1.08363e-09	1.08363e-09	0	
5865	1.07957e-09	1.07957e-09	0	
5875	1.07545e-09	1.07545e-09	0	
5885	1.07127e-09	1.07127e-09	0	
5895	1.06705e-09	1.06705e-09	0	
5905	1.06282e-09	1.06282e-09	0	
5915	1.05859e-09	1.05859e-09	0	
5925	1.0544e-09	1.0544e-09	0	
5935	1.05027e-09	1.05027e-09	0	
5945	1.04621e-09	1.04621e-09	0	
5955	1.04226e-09	1.04226e-09	0	
5965	1.03843e-09	1.03843e-09	0	
5975	1.03474e-09	1.03474e-09	0	
5985	1.0312e-09	1.0312e-09	0	
5995	1.02781e-09	1.02781e-09	0	
6005	1.02457e-09	1.02457e-09	0	
6015	1.02146e-09	1.02146e-09	0	
6025	1.01848e-09	1.01848e-09	0	
6035	1.0156e-09	1.0156e-09	0	
